1     1H ( 12C , 12C )  1H 
******************************

 PROJECTILE      TARGET      PART. C      PART. D
      12           1          12           1        AMU
  11177.9319    938.7833  11178.9319    938.7833    MEV


 BEAM ENERGY   4800.00 MEV        EXCITATION ENERGY     1.00
 GROUND STATE Q-VALUE      0.000 MEV.

1  PARTICLE C                                                         PARTICLE D
******************************************************************    ********************

    LAB     C.M.    KINET       P3        SOLID     1/2E     BRHO3      LAB    KINET  p4          SOLID  BRHO4   TOF
  ANGLE     ANG     ENERG                 ANGLE     DE/DT    KG.M       ANG    ENERGY               ANG  KG*M

   0.01     0.13   4798.997  11416.028   177.330    -0.003     63.47    63.740     0.003     2.222    0.00      0.07 0.1409E+03
   0.02     0.27   4798.991  11416.020   177.331    -0.005     63.47    76.016     0.009     4.107    0.00      0.14 0.7623E+02
   0.03     0.40   4798.980  11416.005   177.332    -0.008     63.47    80.427     0.020     6.062    0.00      0.20 0.5165E+02
   0.04     0.53   4798.966  11415.984   177.334    -0.010     63.47    82.636     0.034     8.036    0.00      0.27 0.3896E+02
   0.05     0.67   4798.947  11415.957   177.337    -0.013     63.47    83.936     0.053    10.018    0.00      0.33 0.3125E+02
   0.06     0.80   4798.923  11415.925   177.340    -0.015     63.47    84.777     0.077    12.004    0.00      0.40 0.2608E+02
   0.07     0.93   4798.896  11415.886   177.344    -0.018     63.47    85.353     0.104    13.993    0.00      0.47 0.2237E+02
   0.08     1.07   4798.864  11415.842   177.348    -0.020     63.47    85.764     0.136    15.983    0.01      0.53 0.1959E+02
   0.09     1.20   4798.828  11415.791   177.353    -0.023     63.47    86.064     0.172    17.974    0.01      0.60 0.1742E+02
   0.10     1.33   4798.788  11415.735   177.359    -0.025     63.47    86.285     0.212    19.966    0.02      0.67 0.1568E+02
   0.11     1.46   4798.743  11415.673   177.365    -0.028     63.47    86.451     0.257    21.958    0.02      0.73 0.1426E+02
   0.12     1.60   4798.695  11415.605   177.372    -0.030     63.47    86.573     0.305    23.951    0.04      0.80 0.1307E+02
   0.13     1.73   4798.642  11415.530   177.379    -0.033     63.47    86.663     0.358    25.945    0.05      0.87 0.1207E+02
   0.14     1.86   4798.584  11415.450   177.387    -0.035     63.47    86.728     0.416    27.938    0.08      0.93 0.1121E+02
   0.15     2.00   4798.523  11415.364   177.396    -0.038     63.47    86.771     0.477    29.932    0.13      1.00 0.1046E+02
   0.16     2.13   4798.457  11415.272   177.405    -0.040     63.47    86.798     0.543    31.927    0.25      1.07 0.9807E+01
   0.17     2.26   4798.387  11415.175   177.414    -0.043     63.46    86.812     0.613    33.921    0.74      1.13 0.9230E+01
   0.18     2.40   4798.313  11415.071   177.424    -0.046     63.46    86.813     0.687    35.916    1.66      1.20 0.8718E+01
   0.19     2.53   4798.235  11414.961   177.435    -0.048     63.46    86.805     0.765    37.912    0.48      1.26 0.8259E+01
   0.20     2.66   4798.152  11414.845   177.447    -0.051     63.46    86.789     0.848    39.907    0.31      1.33 0.7846E+01
   0.21     2.80   4798.065  11414.724   177.459    -0.053     63.46    86.766     0.935    41.903    0.25      1.40 0.7473E+01
   0.22     2.93   4797.974  11414.596   177.471    -0.056     63.46    86.737     1.026    43.899    0.21      1.46 0.7133E+01
   0.23     3.06   4797.879  11414.463   177.485    -0.058     63.46    86.702     1.121    45.896    0.19      1.53 0.6823E+01
   0.24     3.20   4797.779  11414.323   177.498    -0.061     63.46    86.663     1.221    47.892    0.18      1.60 0.6539E+01
   0.25     3.33   4797.675  11414.178   177.513    -0.063     63.46    86.620     1.325    49.890    0.17      1.66 0.6277E+01
   0.26     3.46   4797.567  11414.027   177.528    -0.066     63.46    86.573     1.433    51.887    0.17      1.73 0.6036E+01
   0.27     3.60   4797.455  11413.869   177.543    -0.068     63.46    86.523     1.545    53.885    0.16      1.80 0.5812E+01
   0.28     3.73   4797.338  11413.706   177.559    -0.071     63.46    86.470     1.662    55.883    0.16      1.86 0.5605E+01
   0.29     3.86   4797.217  11413.537   177.576    -0.073     63.46    86.414     1.783    57.881    0.16      1.93 0.5411E+01
   0.30     4.00   4797.092  11413.362   177.593    -0.076     63.45    86.356     1.908    59.880    0.16      2.00 0.5231E+01
   0.31     4.13   4796.963  11413.181   177.611    -0.079     63.45    86.296     2.037    61.879    0.16      2.06 0.5062E+01
   0.32     4.26   4796.829  11412.994   177.630    -0.081     63.45    86.234     2.171    63.879    0.16      2.13 0.4904E+01
   0.33     4.40   4796.691  11412.801   177.649    -0.084     63.45    86.171     2.309    65.879    0.16      2.20 0.4755E+01
   0.34     4.53   4796.549  11412.602   177.669    -0.086     63.45    86.106     2.451    67.879    0.16      2.26 0.4615E+01
   0.35     4.66   4796.403  11412.397   177.689    -0.089     63.45    86.039     2.597    69.880    0.16      2.33 0.4483E+01
   0.36     4.80   4796.252  11412.186   177.710    -0.091     63.45    85.971     2.748    71.881    0.16      2.40 0.4358E+01
   0.37     4.93   4796.097  11411.969   177.731    -0.094     63.45    85.902     2.903    73.882    0.17      2.46 0.4241E+01
   0.38     5.06   4795.938  11411.746   177.754    -0.096     63.45    85.832     3.062    75.884    0.17      2.53 0.4129E+01
   0.39     5.20   4795.775  11411.517   177.776    -0.099     63.44    85.761     3.225    77.887    0.17      2.60 0.4023E+01
   0.40     5.33   4795.607  11411.283   177.800    -0.101     63.44    85.688     3.393    79.890    0.17      2.66 0.3922E+01
   0.41     5.47   4795.435  11411.042   177.824    -0.104     63.44    85.615     3.565    81.893    0.17      2.73 0.3826E+01
   0.42     5.60   4795.259  11410.795   177.848    -0.107     63.44    85.541     3.741    83.897    0.18      2.80 0.3735E+01
   0.43     5.73   4795.078  11410.542   177.873    -0.109     63.44    85.467     3.922    85.902    0.18      2.87 0.3648E+01
   0.44     5.87   4794.893  11410.284   177.899    -0.112     63.44    85.391     4.107    87.907    0.18      2.93 0.3565E+01
   0.45     6.00   4794.704  11410.019   177.925    -0.114     63.44    85.315     4.296    89.912    0.18      3.00 0.3486E+01
   0.46     6.13   4794.511  11409.748   177.952    -0.117     63.43    85.238     4.489    91.918    0.19      3.07 0.3410E+01
   0.47     6.27   4794.313  11409.471   177.980    -0.119     63.43    85.161     4.687    93.925    0.19      3.13 0.3337E+01
   0.48     6.40   4794.111  11409.189   178.008    -0.122     63.43    85.083     4.889    95.932    0.19      3.20 0.3268E+01
   0.49     6.54   4793.905  11408.900   178.037    -0.125     63.43    85.005     5.095    97.939    0.19      3.27 0.3201E+01
   0.50     6.67   4793.695  11408.605   178.066    -0.127     63.43    84.926     5.305    99.948    0.20      3.33 0.3137E+01
   0.51     6.80   4793.480  11408.305   178.096    -0.130     63.43    84.847     5.520   101.956    0.20      3.40 0.3075E+01
   0.52     6.94   4793.261  11407.998   178.127    -0.132     63.42    84.767     5.739   103.966    0.20      3.47 0.3016E+01
   0.53     7.07   4793.037  11407.685   178.158    -0.135     63.42    84.687     5.963   105.976    0.21      3.54 0.2959E+01
   0.54     7.20   4792.810  11407.366   178.190    -0.137     63.42    84.606     6.190   107.987    0.21      3.60 0.2904E+01
   0.55     7.34   4792.578  11407.042   178.222    -0.140     63.42    84.525     6.422   109.998    0.21      3.67 0.2851E+01
   0.56     7.47   4792.341  11406.711   178.255    -0.143     63.42    84.444     6.659   112.010    0.21      3.74 0.2800E+01
   0.57     7.61   4792.101  11406.374   178.289    -0.145     63.42    84.362     6.899   114.023    0.22      3.80 0.2751E+01
   0.58     7.74   4791.856  11406.031   178.323    -0.148     63.41    84.281     7.144   116.036    0.22      3.87 0.2703E+01
   0.59     7.87   4791.607  11405.682   178.358    -0.150     63.41    84.198     7.393   118.050    0.22      3.94 0.2657E+01
   0.60     8.01   4791.353  11405.327   178.394    -0.153     63.41    84.116     7.647   120.065    0.23      4.01 0.2613E+01
   0.61     8.14   4791.096  11404.966   178.430    -0.155     63.41    84.033     7.904   122.080    0.23      4.07 0.2570E+01
   0.62     8.28   4790.833  11404.599   178.467    -0.158     63.41    83.950     8.167   124.096    0.23      4.14 0.2528E+01
   0.63     8.41   4790.567  11404.226   178.505    -0.161     63.40    83.867     8.433   126.113    0.24      4.21 0.2488E+01
   0.64     8.54   4790.296  11403.847   178.543    -0.163     63.40    83.784     8.704   128.131    0.24      4.27 0.2449E+01
   0.65     8.68   4790.021  11403.462   178.581    -0.166     63.40    83.700     8.979   130.149    0.24      4.34 0.2411E+01
   0.66     8.81   4789.742  11403.071   178.621    -0.168     63.40    83.616     9.258   132.168    0.25      4.41 0.2374E+01
   0.67     8.95   4789.458  11402.673   178.661    -0.171     63.40    83.532     9.542   134.188    0.25      4.48 0.2339E+01
   0.68     9.08   4789.170  11402.270   178.702    -0.174     63.39    83.447     9.830   136.209    0.25      4.54 0.2304E+01
   0.69     9.22   4788.878  11401.861   178.743    -0.176     63.39    83.363    10.122   138.231    0.26      4.61 0.2271E+01
   0.70     9.35   4788.581  11401.445   178.785    -0.179     63.39    83.278    10.419   140.253    0.26      4.68 0.2238E+01
   0.71     9.49   4788.280  11401.023   178.827    -0.181     63.39    83.193    10.720   142.276    0.26      4.75 0.2207E+01
   0.72     9.62   4787.975  11400.596   178.871    -0.184     63.38    83.108    11.025   144.301    0.27      4.81 0.2176E+01
   0.73     9.75   4787.665  11400.162   178.914    -0.187     63.38    83.023    11.335   146.326    0.27      4.88 0.2146E+01
   0.74     9.89   4787.351  11399.722   178.959    -0.189     63.38    82.938    11.649   148.351    0.27      4.95 0.2117E+01
   0.75    10.02   4787.032  11399.276   179.004    -0.192     63.38    82.852    11.968   150.378    0.28      5.02 0.2088E+01
   0.76    10.16   4786.709  11398.824   179.050    -0.195     63.37    82.767    12.291   152.406    0.28      5.08 0.2061E+01
   0.77    10.29   4786.382  11398.366   179.097    -0.197     63.37    82.681    12.618   154.434    0.28      5.15 0.2034E+01
   0.78    10.43   4786.051  11397.901   179.144    -0.200     63.37    82.595    12.949   156.464    0.29      5.22 0.2008E+01
   0.79    10.56   4785.715  11397.431   179.191    -0.202     63.37    82.509    13.285   158.494    0.29      5.29 0.1982E+01
   0.80    10.70   4785.375  11396.954   179.240    -0.205     63.36    82.423    13.625   160.525    0.29      5.35 0.1957E+01
   0.81    10.83   4785.030  11396.471   179.289    -0.208     63.36    82.336    13.970   162.558    0.30      5.42 0.1933E+01
   0.82    10.97   4784.681  11395.982   179.339    -0.210     63.36    82.250    14.319   164.591    0.30      5.49 0.1909E+01
   0.83    11.10   4784.327  11395.487   179.389    -0.213     63.36    82.164    14.673   166.625    0.30      5.56 0.1886E+01
   0.84    11.24   4783.970  11394.986   179.440    -0.216     63.35    82.077    15.030   168.661    0.31      5.63 0.1864E+01
   0.85    11.37   4783.607  11394.479   179.492    -0.218     63.35    81.990    15.393   170.697    0.31      5.69 0.1842E+01
   0.86    11.51   4783.241  11393.965   179.545    -0.221     63.35    81.903    15.759   172.734    0.31      5.76 0.1820E+01
   0.87    11.64   4782.870  11393.445   179.598    -0.224     63.34    81.816    16.130   174.772    0.32      5.83 0.1799E+01
   0.88    11.78   4782.495  11392.920   179.652    -0.226     63.34    81.729    16.505   176.812    0.32      5.90 0.1778E+01
   0.89    11.91   4782.115  11392.388   179.706    -0.229     63.34    81.642    16.885   178.852    0.32      5.97 0.1758E+01
   0.90    12.05   4781.731  11391.849   179.762    -0.231     63.33    81.555    17.269   180.894    0.33      6.03 0.1739E+01
   0.91    12.18   4781.342  11391.305   179.817    -0.234     63.33    81.468    17.658   182.936    0.33      6.10 0.1719E+01
   0.92    12.32   4780.949  11390.754   179.874    -0.237     63.33    81.380    18.051   184.980    0.33      6.17 0.1701E+01
   0.93    12.45   4780.552  11390.197   179.931    -0.239     63.33    81.293    18.448   187.025    0.34      6.24 0.1682E+01
   0.94    12.59   4780.150  11389.634   179.989    -0.242     63.32    81.205    18.850   189.071    0.34      6.31 0.1664E+01
   0.95    12.72   4779.744  11389.065   180.048    -0.245     63.32    81.117    19.256   191.118    0.34      6.38 0.1646E+01
   0.96    12.86   4779.333  11388.490   180.107    -0.248     63.32    81.030    19.667   193.166    0.35      6.44 0.1629E+01
   0.97    13.00   4778.918  11387.908   180.167    -0.250     63.31    80.942    20.082   195.216    0.35      6.51 0.1612E+01
   0.98    13.13   4778.498  11387.320   180.228    -0.253     63.31    80.854    20.502   197.267    0.35      6.58 0.1596E+01
   0.99    13.27   4778.074  11386.726   180.290    -0.256     63.31    80.766    20.926   199.318    0.36      6.65 0.1579E+01
   1.00    13.40   4777.646  11386.125   180.352    -0.258     63.30    80.678    21.354   201.371    0.36      6.72 0.1563E+01
   1.01    13.54   4777.213  11385.518   180.415    -0.261     63.30    80.590    21.787   203.426    0.37      6.79 0.1548E+01
   1.02    13.67   4776.775  11384.905   180.478    -0.264     63.30    80.502    22.225   205.481    0.37      6.85 0.1533E+01
   1.03    13.81   4776.333  11384.286   180.543    -0.266     63.29    80.413    22.667   207.538    0.37      6.92 0.1518E+01
   1.04    13.95   4775.887  11383.660   180.608    -0.269     63.29    80.325    23.113   209.596    0.38      6.99 0.1503E+01
   1.05    14.08   4775.436  11383.029   180.673    -0.272     63.29    80.237    23.564   211.655    0.38      7.06 0.1488E+01
   1.06    14.22   4774.981  11382.390   180.740    -0.275     63.28    80.148    24.019   213.716    0.38      7.13 0.1474E+01
   1.07    14.35   4774.521  11381.746   180.807    -0.277     63.28    80.060    24.479   215.778    0.39      7.20 0.1460E+01
   1.08    14.49   4774.057  11381.095   180.875    -0.280     63.28    79.971    24.943   217.841    0.39      7.27 0.1447E+01
   1.09    14.63   4773.588  11380.438   180.944    -0.283     63.27    79.882    25.412   219.906    0.39      7.34 0.1433E+01
   1.10    14.76   4773.115  11379.775   181.013    -0.285     63.27    79.794    25.885   221.972    0.40      7.40 0.1420E+01
   1.11    14.90   4772.637  11379.105   181.083    -0.288     63.26    79.705    26.363   224.039    0.40      7.47 0.1407E+01
   1.12    15.04   4772.155  11378.429   181.154    -0.291     63.26    79.616    26.845   226.107    0.41      7.54 0.1394E+01
   1.13    15.17   4771.668  11377.746   181.226    -0.294     63.26    79.527    27.332   228.177    0.41      7.61 0.1382E+01
   1.14    15.31   4771.177  11377.058   181.298    -0.296     63.25    79.438    27.823   230.249    0.41      7.68 0.1370E+01
   1.15    15.45   4770.681  11376.362   181.372    -0.299     63.25    79.349    28.319   232.322    0.42      7.75 0.1358E+01
   1.16    15.58   4770.180  11375.661   181.446    -0.302     63.24    79.260    28.820   234.396    0.42      7.82 0.1346E+01
   1.17    15.72   4769.675  11374.953   181.520    -0.305     63.24    79.171    29.325   236.472    0.42      7.89 0.1334E+01
   1.18    15.86   4769.166  11374.239   181.596    -0.307     63.24    79.082    29.834   238.549    0.43      7.96 0.1323E+01
   1.19    15.99   4768.652  11373.518   181.672    -0.310     63.23    78.992    30.348   240.628    0.43      8.03 0.1311E+01
   1.20    16.13   4768.133  11372.791   181.749    -0.313     63.23    78.903    30.867   242.708    0.43      8.10 0.1300E+01
   1.21    16.27   4767.610  11372.057   181.827    -0.316     63.22    78.814    31.390   244.789    0.44      8.17 0.1290E+01
   1.22    16.40   4767.082  11371.317   181.905    -0.319     63.22    78.724    31.918   246.872    0.44      8.24 0.1279E+01
   1.23    16.54   4766.550  11370.571   181.985    -0.321     63.22    78.635    32.450   248.957    0.45      8.30 0.1268E+01
   1.24    16.68   4766.013  11369.818   182.065    -0.324     63.21    78.546    32.987   251.043    0.45      8.37 0.1258E+01
   1.25    16.82   4765.472  11369.059   182.146    -0.327     63.21    78.456    33.528   253.131    0.45      8.44 0.1248E+01
   1.26    16.95   4764.926  11368.293   182.228    -0.330     63.20    78.366    34.074   255.221    0.46      8.51 0.1238E+01
   1.27    17.09   4764.375  11367.521   182.310    -0.332     63.20    78.277    34.625   257.311    0.46      8.58 0.1228E+01
   1.28    17.23   4763.820  11366.742   182.394    -0.335     63.20    78.187    35.180   259.404    0.46      8.65 0.1218E+01
   1.29    17.37   4763.260  11365.957   182.478    -0.338     63.19    78.097    35.740   261.498    0.47      8.72 0.1209E+01
   1.30    17.50   4762.696  11365.165   182.563    -0.341     63.19    78.008    36.304   263.594    0.47      8.79 0.1199E+01
   1.31    17.64   4762.127  11364.367   182.648    -0.344     63.18    77.918    36.873   265.691    0.48      8.86 0.1190E+01
   1.32    17.78   4761.553  11363.562   182.735    -0.347     63.18    77.828    37.447   267.791    0.48      8.93 0.1181E+01
   1.33    17.92   4760.974  11362.750   182.822    -0.349     63.17    77.738    38.026   269.891    0.48      9.00 0.1172E+01
   1.34    18.06   4760.391  11361.933   182.911    -0.352     63.17    77.648    38.609   271.994    0.49      9.07 0.1163E+01
   1.35    18.19   4759.804  11361.108   183.000    -0.355     63.16    77.558    39.196   274.098    0.49      9.14 0.1154E+01
   1.36    18.33   4759.212  11360.277   183.090    -0.358     63.16    77.468    39.788   276.204    0.49      9.21 0.1145E+01
   1.37    18.47   4758.615  11359.440   183.180    -0.361     63.15    77.378    40.385   278.312    0.50      9.28 0.1137E+01
   1.38    18.61   4758.013  11358.595   183.272    -0.364     63.15    77.288    40.987   280.421    0.50      9.35 0.1129E+01
   1.39    18.75   4757.407  11357.745   183.365    -0.367     63.15    77.197    41.593   282.532    0.51      9.42 0.1120E+01
   1.40    18.88   4756.796  11356.887   183.458    -0.369     63.14    77.107    42.204   284.645    0.51      9.50 0.1112E+01
   1.41    19.02   4756.180  11356.023   183.552    -0.372     63.14    77.017    42.820   286.760    0.51      9.57 0.1104E+01
   1.42    19.16   4755.559  11355.153   183.647    -0.375     63.13    76.927    43.441   288.876    0.52      9.64 0.1096E+01
   1.43    19.30   4754.934  11354.276   183.743    -0.378     63.13    76.836    44.066   290.995    0.52      9.71 0.1088E+01
   1.44    19.44   4754.304  11353.392   183.840    -0.381     63.12    76.746    44.696   293.115    0.52      9.78 0.1081E+01
   1.45    19.58   4753.670  11352.501   183.937    -0.384     63.12    76.655    45.330   295.237    0.53      9.85 0.1073E+01
   1.46    19.72   4753.031  11351.604   184.036    -0.387     63.11    76.565    45.969   297.361    0.53      9.92 0.1066E+01
   1.47    19.86   4752.387  11350.700   184.136    -0.390     63.11    76.474    46.613   299.487    0.54      9.99 0.1058E+01
   1.48    20.00   4751.738  11349.789   184.236    -0.393     63.10    76.384    47.262   301.615    0.54     10.06 0.1051E+01
   1.49    20.13   4751.084  11348.872   184.337    -0.396     63.10    76.293    47.916   303.745    0.54     10.13 0.1044E+01
   1.50    20.27   4750.426  11347.948   184.439    -0.398     63.09    76.202    48.574   305.876    0.55     10.20 0.1037E+01
